wavelength scat1 absorb1 extinct1 scat2 absorb2 extinct2 scat3 absorb3 extinct3 scat4 absorb4 extinct4
400.00000000 0.00101557 0.00572406 0.00673962 0.00101476 0.00576830 0.00678306 0.00110560 0.00641003 0.00751563 0.00110311 0.00638899 0.00749210
400.25017870 0.00101347 0.00572066 0.00673413 0.00101267 0.00576487 0.00677754 0.00110336 0.00640652 0.00750988 0.00110087 0.00638549 0.00748636
400.50035740 0.00101139 0.00571726 0.00672865 0.00101059 0.00576145 0.00677203 0.00110112 0.00640301 0.00750414 0.00109864 0.00638199 0.00748063
400.75053610 0.00100930 0.00571387 0.00672318 0.00100851 0.00575802 0.00676653 0.00109889 0.00639951 0.00749840 0.00109641 0.00637850 0.00747491
401.00071480 0.00100723 0.00571048 0.00671771 0.00100643 0.00575460 0.00676104 0.00109667 0.00639601 0.00749268 0.00109419 0.00637501 0.00746920
401.25089350 0.00100515 0.00570710 0.00671225 0.00100436 0.00575119 0.00675555 0.00109444 0.00639251 0.00748696 0.00109197 0.00637152 0.00746349
401.50107219 0.00100309 0.00570371 0.00670680 0.00100230 0.00574778 0.00675007 0.00109223 0.00638902 0.00748125 0.00108976 0.00636803 0.00745779
401.75125089 0.00100102 0.00570034 0.00670136 0.00100024 0.00574437 0.00674460 0.00109002 0.00638553 0.00747555 0.00108756 0.00636455 0.00745210
402.00142959 0.00099897 0.00569696 0.00669593 0.00099818 0.00574096 0.00673914 0.00108781 0.00638204 0.00746985 0.00108536 0.00636106 0.00744642
402.25160829 0.00099691 0.00569359 0.00669050 0.00099613 0.00573756 0.00673369 0.00108561 0.00637856 0.00746417 0.00108316 0.00635759 0.00744075
402.50178699 0.00099487 0.00569022 0.00668508 0.00099409 0.00573416 0.00672824 0.00108341 0.00637507 0.00745849 0.00108097 0.00635411 0.00743508
402.75196569 0.00099282 0.00568685 0.00667967 0.00099205 0.00573076 0.00672281 0.00108122 0.00637159 0.00745282 0.00107879 0.00635064 0.00742942
403.00214439 0.00099078 0.00568349 0.00667427 0.00099001 0.00572737 0.00671738 0.00107904 0.00636812 0.00744715 0.00107661 0.00634717 0.00742377
403.25232309 0.00098875 0.00568013 0.00666888 0.00098798 0.00572398 0.00671196 0.00107686 0.00636464 0.00744150 0.00107443 0.00634370 0.00741813
403.50250179 0.00098672 0.00567677 0.00666350 0.00098596 0.00572059 0.00670654 0.00107468 0.00636117 0.00743585 0.00107226 0.00634024 0.00741250
403.75268049 0.00098470 0.00567342 0.00665812 0.00098393 0.00571720 0.00670114 0.00107251 0.00635770 0.00743021 0.00107010 0.00633677 0.00740687
404.00285919 0.00098268 0.00567007 0.00665275 0.00098192 0.00571382 0.00669574 0.00107035 0.00635424 0.00742458 0.00106794 0.00633332 0.00740125
404.25303788 0.00098067 0.00566672 0.00664739 0.00097991 0.00571045 0.00669035 0.00106819 0.00635077 0.00741896 0.00106578 0.00632986 0.00739564
404.50321658 0.00097866 0.00566338 0.00664204 0.00097790 0.00570707 0.00668497 0.00106603 0.00634731 0.00741335 0.00106364 0.00632641 0.00739004
404.75339528 0.00097665 0.00566004 0.00663669 0.00097590 0.00570370 0.00667960 0.00106388 0.00634386 0.00740774 0.00106149 0.00632296 0.00738445
405.00357398 0.00097466 0.00565670 0.00663136 0.00097390 0.00570033 0.00667424 0.00106174 0.00634040 0.00740214 0.00105935 0.00631951 0.00737886
405.25375268 0.00097266 0.00565337 0.00662603 0.00097191 0.00569697 0.00666888 0.00105960 0.00633695 0.00739655 0.00105722 0.00631606 0.00737328
405.50393138 0.00097067 0.00565004 0.00662071 0.00096992 0.00569361 0.00666353 0.00105746 0.00633350 0.00739096 0.00105509 0.00631262 0.00736771
405.75411008 0.00096869 0.00564671 0.00661539 0.00096794 0.00569025 0.00665819 0.00105533 0.00633005 0.00738539 0.00105296 0.00630918 0.00736215
406.00428878 0.00096671 0.00564338 0.00661009 0.00096596 0.00568689 0.00665286 0.00105321 0.00632661 0.00737982 0.00105084 0.00630575 0.00735659
406.25446748 0.00096473 0.00564006 0.00660479 0.00096399 0.00568354 0.00664754 0.00105109 0.00632317 0.00737426 0.00104873 0.00630232 0.00735105
406.50464618 0.00096276 0.00563675 0.00659951 0.00096202 0.00568019 0.00664222 0.00104897 0.00631973 0.00736871 0.00104662 0.00629888 0.00734551
406.75482487 0.00096079 0.00563343 0.00659422 0.00096006 0.00567685 0.00663691 0.00104686 0.00631630 0.00736316 0.00104452 0.00629546 0.00733997
407.00500357 0.00095883 0.00563012 0.00658895 0.00095810 0.00567351 0.00663161 0.00104476 0.00631287 0.00735763 0.00104242 0.00629203 0.00733445
407.25518227 0.00095688 0.00562681 0.00658369 0.00095615 0.00567017 0.00662632 0.00104266 0.00630944 0.00735210 0.00104032 0.00628861 0.00732893
407.50536097 0.00095492 0.00562351 0.00657843 0.00095420 0.00566683 0.00662103 0.00104056 0.00630601 0.00734657 0.00103823 0.00628519 0.00732342
407.75553967 0.00095298 0.00562020 0.00657318 0.00095225 0.00566350 0.00661575 0.00103847 0.00630259 0.00734106 0.00103615 0.00628178 0.00731792
408.00571837 0.00095104 0.00561690 0.00656794 0.00095031 0.00566017 0.00661049 0.00103639 0.00629917 0.00733556 0.00103407 0.00627836 0.00731243
408.25589707 0.00094910 0.00561361 0.00656271 0.00094838 0.00565684 0.00660522 0.00103431 0.00629575 0.00733006 0.00103199 0.00627495 0.00730695
408.50607577 0.00094716 0.00561032 0.00655748 0.00094645 0.00565352 0.00659997 0.00103223 0.00629233 0.00732457 0.00102992 0.00627154 0.00730147
408.75625447 0.00094524 0.00560703 0.00655226 0.00094452 0.00565020 0.00659472 0.00103016 0.00628892 0.00731908 0.00102786 0.00626814 0.00729600
409.00643317 0.00094331 0.00560374 0.00654705 0.00094260 0.00564689 0.00658949 0.00102810 0.00628551 0.00731361 0.00102580 0.00626474 0.00729053
409.25661187 0.00094139 0.00560046 0.00654185 0.00094068 0.00564357 0.00658426 0.00102604 0.00628210 0.00730814 0.00102374 0.00626134 0.00728508
409.50679056 0.00093948 0.00559718 0.00653666 0.00093877 0.00564026 0.00657903 0.00102398 0.00627870 0.00730268 0.00102169 0.00625794 0.00727963
409.75696926 0.00093757 0.00559390 0.00653147 0.00093686 0.00563696 0.00657382 0.00102193 0.00627530 0.00729723 0.00101964 0.00625455 0.00727419
410.00714796 0.00093566 0.00559063 0.00652629 0.00093496 0.00563365 0.00656861 0.00101988 0.00627190 0.00729178 0.00101760 0.00625116 0.00726876
410.25732666 0.00093376 0.00558736 0.00652112 0.00093306 0.00563035 0.00656341 0.00101784 0.00626851 0.00728635 0.00101557 0.00624777 0.00726334
410.50750536 0.00093186 0.00558409 0.00651596 0.00093117 0.00562705 0.00655822 0.00101580 0.00626511 0.00728092 0.00101353 0.00624439 0.00725792
410.75768406 0.00092997 0.00558083 0.00651080 0.00092928 0.00562376 0.00655304 0.00101377 0.00626172 0.00727550 0.00101151 0.00624101 0.00725251
411.00786276 0.00092809 0.00557757 0.00650565 0.00092739 0.00562047 0.00654786 0.00101174 0.00625834 0.00727008 0.00100948 0.00623763 0.00724711
411.25804146 0.00092620 0.00557431 0.00650051 0.00092551 0.00561718 0.00654269 0.00100972 0.00625495 0.00726467 0.00100747 0.00623425 0.00724172
411.50822016 0.00092432 0.00557106 0.00649538 0.00092364 0.00561390 0.00653753 0.00100770 0.00625157 0.00725928 0.00100545 0.00623088 0.00723633
411.75839886 0.00092245 0.00556780 0.00649025 0.00092177 0.00561061 0.00653238 0.00100569 0.00624819 0.00725388 0.00100345 0.00622751 0.00723095
412.00857756 0.00092058 0.00556456 0.00648514 0.00091990 0.00560734 0.00652723 0.00100368 0.00624482 0.00724850 0.00100144 0.00622414 0.00722558
412.25875625 0.00091872 0.00556131 0.00648003 0.00091804 0.00560406 0.00652210 0.00100168 0.00624145 0.00724312 0.00099944 0.00622077 0.00722022
412.50893495 0.00091686 0.00555807 0.00647493 0.00091618 0.00560079 0.00651697 0.00099968 0.00623808 0.00723775 0.00099745 0.00621741 0.00721486
412.75911365 0.00091500 0.00555483 0.00646983 0.00091432 0.00559752 0.00651184 0.00099768 0.00623471 0.00723239 0.00099546 0.00621405 0.00720951
413.00929235 0.00091315 0.00555160 0.00646474 0.00091247 0.00559425 0.00650673 0.00099569 0.00623134 0.00722704 0.00099348 0.00621070 0.00720417
413.25947105 0.00091130 0.00554836 0.00645966 0.00091063 0.00559099 0.00650162 0.00099371 0.00622798 0.00722169 0.00099150 0.00620734 0.00719884
413.50964975 0.00090933 0.00554521 0.00645454 0.00090866 0.00558779 0.00649645 0.00099157 0.00622454 0.00721610 0.00098936 0.00620391 0.00719327
413.75982845 0.00090734 0.00554208 0.00644942 0.00090667 0.00558460 0.00649127 0.00098940 0.00622108 0.00721048 0.00098720 0.00620047 0.00718767
414.01000715 0.00090535 0.00553894 0.00644430 0.00090469 0.00558142 0.00648611 0.00098724 0.00621762 0.00720486 0.00098505 0.00619703 0.00718207
414.26018585 0.00090337 0.00553582 0.00643919 0.00090271 0.00557824 0.00648095 0.00098508 0.00621416 0.00719925 0.00098290 0.00619359 0.00717649
414.51036455 0.00090140 0.00553269 0.00643409 0.00090073 0.00557506 0.00647580 0.00098293 0.00621071 0.00719365 0.00098075 0.00619016 0.00717091
414.76054325 0.00089943 0.00552957 0.00642900 0.00089876 0.00557189 0.00647066 0.00098079 0.00620727 0.00718805 0.00097861 0.00618673 0.00716534
415.01072194 0.00089746 0.00552646 0.00642392 0.00089680 0.00556872 0.00646552 0.00097865 0.00620382 0.00718247 0.00097648 0.00618331 0.00715979
415.26090064 0.00089550 0.00552334 0.00641884 0.00089484 0.00556556 0.00646040 0.00097651 0.00620038 0.00717690 0.00097435 0.00617989 0.00715424
415.51107934 0.00089354 0.00552024 0.00641378 0.00089289 0.00556240 0.00645528 0.00097438 0.00619695 0.00717133 0.00097223 0.00617647 0.00714869
415.76125804 0.00089159 0.00551713 0.00640872 0.00089094 0.00555924 0.00645018 0.00097226 0.00619352 0.00716577 0.00097011 0.00617305 0.00714316
416.01143674 0.00088965 0.00551403 0.00640368 0.00088899 0.00555608 0.00644508 0.00097014 0.00619009 0.00716023 0.00096800 0.00616964 0.00713764
416.26161544 0.00088771 0.00551093 0.00639864 0.00088706 0.00555293 0.00643999 0.00096803 0.00618666 0.00715469 0.00096589 0.00616623 0.00713212
416.51179414 0.00088577 0.00550784 0.00639361 0.00088512 0.00554979 0.00643491 0.00096592 0.00618324 0.00714916 0.00096379 0.00616283 0.00712662
416.76197284 0.00088384 0.00550475 0.00638859 0.00088319 0.00554664 0.00642984 0.00096382 0.00617982 0.00714364 0.00096169 0.00615943 0.00712112
417.01215154 0.00088191 0.00550166 0.00638357 0.00088127 0.00554350 0.00642477 0.00096172 0.00617641 0.00713812 0.00095960 0.00615603 0.00711563
417.26233024 0.00087999 0.00549858 0.00637857 0.00087935 0.00554037 0.00641972 0.00095963 0.00617300 0.00713262 0.00095752 0.00615264 0.00711015
417.51250893 0.00087808 0.00549550 0.00637357 0.00087743 0.00553724 0.00641467 0.00095754 0.00616959 0.00712713 0.00095544 0.00614925 0.00710468
417.76268763 0.00087617 0.00549242 0.00636858 0.00087552 0.00553411 0.00640963 0.00095546 0.00616618 0.00712164 0.00095336 0.00614586 0.00709922
418.01286633 0.00087426 0.00548935 0.00636361 0.00087362 0.00553098 0.00640460 0.00095338 0.00616278 0.00711616 0.00095129 0.00614248 0.00709377
418.26304503 0.00087236 0.00548628 0.00635864 0.00087172 0.00552786 0.00639958 0.00095131 0.00615938 0.00711069 0.00094922 0.00613910 0.00708832
418.51322373 0.00087046 0.00548321 0.00635367 0.00086982 0.00552475 0.00639457 0.00094924 0.00615599 0.00710523 0.00094716 0.00613572 0.00708289
418.76340243 0.00086857 0.00548015 0.00634872 0.00086793 0.00552163 0.00638957 0.00094718 0.00615260 0.00709978 0.00094511 0.00613235 0.00707746
419.01358113 0.00086668 0.00547709 0.00634377 0.00086605 0.00551852 0.00638457 0.00094513 0.00614921 0.00709434 0.00094306 0.00612898 0.00707204
419.26375983 0.00086480 0.00547404 0.00633884 0.00086417 0.00551542 0.00637958 0.00094308 0.00614583 0.00708891 0.00094102 0.00612562 0.00706663
419.51393853 0.00086292 0.00547099 0.00633391 0.00086229 0.00551232 0.00637461 0.00094103 0.00614245 0.00708348 0.00093898 0.00612226 0.00706123
419.76411723 0.00086105 0.00546794 0.00632899 0.00086042 0.00550922 0.00636964 0.00093899 0.00613908 0.00707807 0.00093694 0.00611890 0.00705584
420.01429593 0.00085918 0.00546490 0.00632408 0.00085855 0.00550612 0.00636467 0.00093696 0.00613570 0.00707266 0.00093491 0.00611554 0.00705046
420.26447462 0.00085732 0.00546186 0.00631917 0.00085669 0.00550303 0.00635972 0.00093493 0.00613233 0.00706726 0.00093289 0.00611219 0.00704508
420.51465332 0.00085546 0.00545882 0.00631428 0.00085483 0.00549994 0.00635478 0.00093290 0.00612897 0.00706187 0.00093087 0.00610884 0.00703971
420.76483202 0.00085360 0.00545579 0.00630939 0.00085298 0.00549686 0.00634984 0.00093088 0.00612561 0.00705649 0.00092886 0.00610550 0.00703436
421.01501072 0.00085176 0.00545276 0.00630451 0.00085113 0.00549378 0.00634491 0.00092887 0.00612225 0.00705111 0.00092685 0.00610216 0.00702901
421.26518942 0.00084991 0.00544973 0.00629964 0.00084929 0.00549070 0.00633999 0.00092686 0.00611889 0.00704575 0.00092484 0.00609882 0.00702366
421.51536812 0.00084807 0.00544671 0.00629478 0.00084745 0.00548763 0.00633508 0.00092485 0.00611554 0.00704039 0.00092284 0.00609549 0.00701833
421.76554682 0.00084624 0.00544369 0.00628993 0.00084562 0.00548456 0.00633018 0.00092285 0.00611219 0.00703504 0.00092085 0.00609216 0.00701301
422.01572552 0.00084441 0.00544068 0.00628508 0.00084379 0.00548149 0.00632528 0.00092086 0.00610885 0.00702970 0.00091886 0.00608883 0.00700769
422.26590422 0.00084258 0.00543766 0.00628024 0.00084197 0.00547843 0.00632040 0.00091887 0.00610551 0.00702437 0.00091688 0.00608551 0.00700238
422.51608292 0.00084076 0.00543466 0.00627542 0.00084015 0.00547537 0.00631552 0.00091688 0.00610217 0.00701905 0.00091490 0.00608219 0.00699709
422.76626162 0.00083894 0.00543165 0.00627059 0.00083833 0.00547232 0.00631065 0.00091490 0.00609883 0.00701373 0.00091292 0.00607887 0.00699180
423.01644031 0.00083713 0.00542865 0.00626578 0.00083652 0.00546926 0.00630578 0.00091293 0.00609550 0.00700843 0.00091096 0.00607556 0.00698651
423.26661901 0.00083532 0.00542565 0.00626098 0.00083471 0.00546622 0.00630093 0.00091096 0.00609218 0.00700313 0.00090899 0.00607225 0.00698124
423.51679771 0.00083352 0.00542266 0.00625618 0.00083291 0.00546317 0.00629608 0.00090899 0.00608885 0.00699784 0.00090703 0.00606894 0.00697598
423.76697641 0.00083172 0.00541967 0.00625139 0.00083112 0.00546013 0.00629125 0.00090703 0.00608553 0.00699256 0.00090508 0.00606564 0.00697072
424.01715511 0.00082993 0.00541668 0.00624661 0.00082932 0.00545709 0.00628642 0.00090508 0.00608221 0.00698729 0.00090313 0.00606234 0.00696547
424.26733381 0.00082814 0.00541370 0.00624184 0.00082754 0.00545406 0.00628160 0.00090313 0.00607890 0.00698203 0.00090118 0.00605905 0.00696023
424.51751251 0.00082635 0.00541072 0.00623708 0.00082575 0.00545103 0.00627678 0.00090118 0.00607559 0.00697677 0.00089924 0.00605576 0.00695500
424.76769121 0.00082457 0.00540775 0.00623232 0.00082397 0.00544800 0.00627198 0.00089924 0.00607229 0.00697152 0.00089731 0.00605247 0.00694978
425.01786991 0.00082280 0.00540477 0.00622757 0.00082220 0.00544498 0.00626718 0.00089730 0.00606898 0.00696629 0.00089538 0.00604918 0.00694456
425.26804861 0.00082103 0.00540180 0.00622283 0.00082043 0.00544196 0.00626239 0.00089537 0.00606568 0.00696106 0.00089345 0.00604590 0.00693935
425.51822731 0.00081926 0.00539884 0.00621810 0.00081866 0.00543895 0.00625761 0.00089345 0.00606239 0.00695583 0.00089153 0.00604262 0.00693416
425.76840600 0.00081750 0.00539588 0.00621338 0.00081690 0.00543593 0.00625284 0.00089152 0.00605909 0.00695062 0.00088962 0.00603935 0.00692897
426.01858470 0.00081574 0.00539292 0.00620866 0.00081515 0.00543293 0.00624807 0.00088961 0.00605581 0.00694541 0.00088771 0.00603608 0.00692378
426.26876340 0.00081399 0.00538996 0.00620395 0.00081340 0.00542992 0.00624332 0.00088770 0.00605252 0.00694022 0.00088580 0.00603281 0.00691861
426.51894210 0.00081224 0.00538701 0.00619925 0.00081165 0.00542692 0.00623857 0.00088579 0.00604924 0.00693503 0.00088390 0.00602955 0.00691344
426.76912080 0.00081049 0.00538407 0.00619456 0.00080990 0.00542392 0.00623383 0.00088389 0.00604596 0.00692985 0.00088200 0.00602628 0.00690829
427.01929950 0.00080875 0.00538112 0.00618987 0.00080817 0.00542093 0.00622909 0.00088199 0.00604268 0.00692467 0.00088011 0.00602303 0.00690314
427.26947820 0.00080702 0.00537818 0.00618520 0.00080643 0.00541794 0.00622437 0.00088010 0.00603941 0.00691951 0.00087822 0.00601977 0.00689800
427.51965690 0.00080529 0.00537524 0.00618053 0.00080470 0.00541495 0.00621965 0.00087821 0.00603614 0.00691435 0.00087634 0.00601652 0.00689286
427.76983560 0.00080356 0.00537231 0.00617587 0.00080298 0.00541197 0.00621494 0.00087633 0.00603288 0.00690921 0.00087446 0.00601328 0.00688774
428.02001430 0.00080184 0.00536938 0.00617122 0.00080125 0.00540899 0.00621024 0.00087445 0.00602962 0.00690407 0.00087259 0.00601003 0.00688262
428.27019299 0.00080012 0.00536645 0.00616657 0.00079954 0.00540601 0.00620555 0.00087257 0.00602636 0.00689893 0.00087072 0.00600679 0.00687751
428.52037169 0.00079841 0.00536353 0.00616193 0.00079783 0.00540304 0.00620086 0.00087070 0.00602311 0.00689381 0.00086886 0.00600356 0.00687241
428.77055039 0.00079670 0.00536061 0.00615730 0.00079612 0.00540007 0.00619619 0.00086884 0.00601985 0.00688869 0.00086700 0.00600032 0.00686732
429.02072909 0.00079499 0.00535769 0.00615268 0.00079441 0.00539710 0.00619152 0.00086698 0.00601661 0.00688359 0.00086514 0.00599709 0.00686224
429.27090779 0.00079329 0.00535478 0.00614807 0.00079271 0.00539414 0.00618685 0.00086512 0.00601336 0.00687849 0.00086329 0.00599387 0.00685716
429.52108649 0.00079159 0.00535187 0.00614346 0.00079102 0.00539118 0.00618220 0.00086327 0.00601012 0.00687340 0.00086145 0.00599065 0.00685209
429.77126519 0.00078990 0.00534896 0.00613886 0.00078933 0.00538823 0.00617755 0.00086143 0.00600688 0.00686831 0.00085961 0.00598743 0.00684703
430.02144389 0.00078821 0.00534606 0.00613427 0.00078764 0.00538527 0.00617291 0.00085959 0.00600365 0.00686324 0.00085777 0.00598421 0.00684198
430.27162259 0.00078653 0.00534316 0.00612969 0.00078596 0.00538233 0.00616828 0.00085775 0.00600042 0.00685817 0.00085594 0.00598100 0.00683694
430.52180129 0.00078487 0.00534051 0.00612538 0.00078430 0.00537962 0.00616392 0.00085593 0.00599743 0.00685337 0.00085413 0.00597803 0.00683216
430.77197999 0.00078339 0.00534041 0.00612380 0.00078282 0.00537943 0.00616225 0.00085427 0.00599697 0.00685123 0.00085247 0.00597759 0.00683006
431.02215868 0.00078193 0.00534031 0.00612224 0.00078135 0.00537924 0.00616059 0.00085261 0.00599650 0.00684911 0.00085082 0.00597716 0.00682798
431.27233738 0.00078046 0.00534022 0.00612068 0.00077988 0.00537906 0.00615894 0.00085095 0.00599605 0.00684700 0.00084917 0.00597674 0.00682591
431.52251608 0.00077900 0.00534013 0.00611914 0.00077842 0.00537889 0.00615730 0.00084930 0.00599560 0.00684490 0.00084753 0.00597632 0.00682385
431.77269478 0.00077755 0.00534005 0.00611760 0.00077696 0.00537872 0.00615568 0.00084766 0.00599515 0.00684281 0.00084589 0.00597590 0.00682179
432.02287348 0.00077609 0.00533998 0.00611608 0.00077550 0.00537855 0.00615406 0.00084602 0.00599471 0.00684073 0.00084426 0.00597550 0.00681975
432.27305218 0.00077465 0.00533991 0.00611456 0.00077405 0.00537840 0.00615245 0.00084438 0.00599428 0.00683866 0.00084263 0.00597509 0.00681772
432.52323088 0.00077320 0.00533985 0.00611305 0.00077260 0.00537825 0.00615085 0.00084275 0.00599385 0.00683660 0.00084100 0.00597470 0.00681570
432.77340958 0.00077176 0.00533979 0.00611156 0.00077116 0.00537810 0.00614926 0.00084112 0.00599343 0.00683455 0.00083938 0.00597431 0.00681369
433.02358828 0.00077033 0.00533974 0.00611007 0.00076972 0.00537796 0.00614768 0.00083950 0.00599301 0.00683251 0.00083776 0.00597392 0.00681169
433.27376698 0.00076890 0.00533970 0.00610859 0.00076829 0.00537783 0.00614611 0.00083788 0.00599260 0.00683048 0.00083615 0.00597354 0.00680969
433.52394568 0.00076747 0.00533966 0.00610713 0.00076686 0.00537770 0.00614455 0.00083627 0.00599219 0.00682846 0.00083455 0.00597317 0.00680771
433.77412437 0.00076605 0.00533962 0.00610567 0.00076543 0.00537757 0.00614300 0.00083466 0.00599180 0.00682645 0.00083294 0.00597280 0.00680574
434.02430307 0.00076463 0.00533960 0.00610422 0.00076401 0.00537746 0.00614146 0.00083305 0.00599140 0.00682446 0.00083134 0.00597244 0.00680378
